id,size,amortizedTimes_BST,deviazioneStandard_BST,amortizedTimes_AVL,deviazioneStandard_AVL,amortizedTimes_RBT,deviazioneStandard_RBT
0,1000,1.671290397644043e-05,3.667042339407818e-06,7.788896560668945e-06,3.256720685781374e-06,5.036115646362305e-06,2.039106868825615e-06
1,1047,4.001879760392416e-06,3.667042339407818e-06,9.508278672765752e-06,3.256720685781374e-06,6.1182716172882345e-06,2.039106868825615e-06
2,1097,1.6135743453270105e-05,3.667042339407818e-06,8.362689231239673e-06,3.256720685781374e-06,6.347324159217076e-06,2.039106868825615e-06
3,1149,4.539498046131317e-06,3.667042339407818e-06,9.366384893007336e-06,3.256720685781374e-06,6.585872308184937e-06,2.039106868825615e-06
4,1204,4.080640913244101e-06,3.667042339407818e-06,6.360469070383876e-06,3.256720685781374e-06,5.862245528008851e-06,2.039106868825615e-06
5,1261,3.87784699236562e-06,3.667042339407818e-06,1.0393234966861928e-05,3.256720685781374e-06,5.012084150200888e-06,2.039106868825615e-06
6,1321,4.322216602819242e-06,3.667042339407818e-06,8.527660442066409e-06,3.256720685781374e-06,5.247555024510166e-06,2.039106868825615e-06
7,1384,4.2054005440949014e-06,3.667042339407818e-06,1.0228398218320284e-05,3.256720685781374e-06,5.082243439779116e-06,2.039106868825615e-06
8,1450,3.931111302869074e-06,3.667042339407818e-06,1.0129665506297144e-05,3.256720685781374e-06,5.554495186641299e-06,2.039106868825615e-06
9,1519,5.4864525559546526e-06,3.667042339407818e-06,1.0836038093491555e-05,3.256720685781374e-06,5.299359108759746e-06,2.039106868825615e-06
10,1592,4.300220527840619e-06,3.667042339407818e-06,1.0420928648368797e-05,3.256720685781374e-06,5.510584193857471e-06,2.039106868825615e-06
11,1668,4.498078096970665e-06,3.667042339407818e-06,9.79202828533072e-06,3.256720685781374e-06,5.323109295156648e-06,2.039106868825615e-06
12,1747,4.40125883000881e-06,3.667042339407818e-06,1.0089186442942366e-05,3.256720685781374e-06,5.921160212638519e-06,2.039106868825615e-06
13,1830,4.496209608401106e-06,3.667042339407818e-06,8.889625632697767e-06,3.256720685781374e-06,6.561722260355298e-06,2.039106868825615e-06
14,1917,4.422123629908793e-06,3.667042339407818e-06,1.0087580872378004e-05,3.256720685781374e-06,5.413109148052377e-06,2.039106868825615e-06
15,2009,4.367842610170736e-06,3.667042339407818e-06,1.1276878368326418e-05,3.256720685781374e-06,5.7107717495999445e-06,2.039106868825615e-06
16,2104,4.184903300760364e-06,3.667042339407818e-06,1.123626875786727e-05,3.256720685781374e-06,5.48906652646373e-06,2.039106868825615e-06
17,2205,4.770101603466908e-06,3.667042339407818e-06,1.0554644526267538e-05,3.256720685781374e-06,5.770594624975642e-06,2.039106868825615e-06
18,2310,4.506936837068368e-06,3.667042339407818e-06,1.1119801244694433e-05,3.256720685781374e-06,5.582710365196327e-06,2.039106868825615e-06
19,2420,4.571134393865412e-06,3.667042339407818e-06,7.679344208772517e-06,3.256720685781374e-06,5.755345683452512e-06,2.039106868825615e-06
20,2535,4.890355367867434e-06,3.667042339407818e-06,1.1937199729904385e-05,3.256720685781374e-06,5.635519234621548e-06,2.039106868825615e-06
21,2656,4.351228834634804e-06,3.667042339407818e-06,9.28342342376709e-06,3.256720685781374e-06,5.815582103039845e-06,2.039106868825615e-06
22,2782,4.953227396237601e-06,3.667042339407818e-06,1.1754498731995726e-05,3.256720685781374e-06,6.037080656445172e-06,2.039106868825615e-06
23,2915,5.3255267658528085e-06,3.667042339407818e-06,1.5488210714088296e-05,3.256720685781374e-06,6.05076091367221e-06,2.039106868825615e-06
24,3053,4.618042147124434e-06,3.667042339407818e-06,9.480125584682011e-06,3.256720685781374e-06,1.574218605058997e-05,2.039106868825615e-06
25,3199,4.7446713294040865e-06,3.667042339407818e-06,1.1324770713679751e-05,3.256720685781374e-06,6.133148393693586e-06,2.039106868825615e-06
26,3351,4.610848832365222e-06,3.667042339407818e-06,5.541328742090747e-06,3.256720685781374e-06,5.8764381146864975e-06,2.039106868825615e-06
27,3511,4.953348001704464e-06,3.667042339407818e-06,1.0226126648835802e-05,3.256720685781374e-06,5.687277937030494e-06,2.039106868825615e-06
28,3678,5.243912282490484e-06,3.667042339407818e-06,1.2153902411655345e-05,3.256720685781374e-06,5.909124750880977e-06,2.039106868825615e-06
29,3853,5.275096145816014e-06,3.667042339407818e-06,1.1386977769231412e-05,3.256720685781374e-06,6.05111675326805e-06,2.039106868825615e-06
30,4037,4.8274299370229675e-06,3.667042339407818e-06,1.2222953382505767e-05,3.256720685781374e-06,5.84140283387576e-06,2.039106868825615e-06
31,4229,5.075175532721887e-06,3.667042339407818e-06,9.433460393451465e-06,3.256720685781374e-06,5.8505292140611605e-06,2.039106868825615e-06
32,4430,5.16905472456198e-06,3.667042339407818e-06,9.983979821474235e-06,3.256720685781374e-06,5.8808122208640485e-06,2.039106868825615e-06
33,4641,5.180582458719666e-06,3.667042339407818e-06,1.1592352089761685e-05,3.256720685781374e-06,5.9640091622962286e-06,2.039106868825615e-06
34,4862,5.194994707943137e-06,3.667042339407818e-06,1.1460323090516015e-05,3.256720685781374e-06,6.4488253638558995e-06,2.039106868825615e-06
35,5094,3.569791679247529e-05,3.667042339407818e-06,1.2225574917263455e-05,3.256720685781374e-06,1.4409112799247199e-05,2.039106868825615e-06
36,5336,5.017826403456292e-06,3.667042339407818e-06,1.2748691810482087e-05,3.256720685781374e-06,6.06408004817934e-06,2.039106868825615e-06
37,5590,5.3135781467280786e-06,3.667042339407818e-06,1.2838094093718555e-05,3.256720685781374e-06,6.108420479489567e-06,2.039106868825615e-06
38,5857,5.038459898974884e-06,3.667042339407818e-06,1.2721017254931498e-05,3.256720685781374e-06,6.187770153773163e-06,2.039106868825615e-06
39,6135,5.46975357316817e-06,3.667042339407818e-06,1.5135635276489755e-05,3.256720685781374e-06,6.342633720715063e-06,2.039106868825615e-06
40,6428,5.342126560270527e-06,3.667042339407818e-06,1.2155230474086303e-05,3.256720685781374e-06,6.535295084091025e-06,2.039106868825615e-06
41,6734,5.41890662396949e-06,3.667042339407818e-06,1.2983969916991462e-05,3.256720685781374e-06,6.3421324731902124e-06,2.039106868825615e-06
42,7054,5.626563549988122e-06,3.667042339407818e-06,1.1018156025137278e-05,3.256720685781374e-06,6.414284474930143e-06,2.039106868825615e-06
43,7390,8.130009022713998e-06,3.667042339407818e-06,1.3240587082218897e-05,3.256720685781374e-06,1.1636665612660822e-05,2.039106868825615e-06
44,7742,5.4102109033480625e-06,3.667042339407818e-06,1.3040067366745637e-05,3.256720685781374e-06,6.2362687651176715e-06,2.039106868825615e-06
45,8111,5.403409799625894e-06,3.667042339407818e-06,1.3325602686988663e-05,3.256720685781374e-06,6.578336322282601e-06,2.039106868825615e-06
46,8497,6.223967934799598e-06,3.667042339407818e-06,1.4914783910118553e-05,3.256720685781374e-06,6.648110013380182e-06,2.039106868825615e-06
47,8902,5.575196980305185e-06,3.667042339407818e-06,1.1501888617106541e-05,3.256720685781374e-06,6.352615099332488e-06,2.039106868825615e-06
48,9326,5.409719093710523e-06,3.667042339407818e-06,1.4084796140614739e-05,3.256720685781374e-06,1.0473288974357014e-05,2.039106868825615e-06
49,9770,7.42465227140741e-06,3.667042339407818e-06,1.3848312557536724e-05,3.256720685781374e-06,6.368899662638638e-06,2.039106868825615e-06
50,10235,5.864374918301745e-06,3.667042339407818e-06,1.3061238313571499e-05,3.256720685781374e-06,7.0059654709182835e-06,2.039106868825615e-06
51,10722,5.936693776078554e-06,3.667042339407818e-06,1.4701456170632666e-05,3.256720685781374e-06,6.53300706051864e-06,2.039106868825615e-06
52,11233,5.884988961890068e-06,3.667042339407818e-06,1.4513500182719687e-05,3.256720685781374e-06,6.898687113576227e-06,2.039106868825615e-06
53,11768,7.642603990255287e-06,3.667042339407818e-06,1.098293580626404e-05,3.256720685781374e-06,1.0054890271516821e-05,2.039106868825615e-06
54,12328,6.081685085408027e-06,3.667042339407818e-06,1.4414016029263843e-05,3.256720685781374e-06,6.704574896869994e-06,2.039106868825615e-06
55,12915,5.7413002985925855e-06,3.667042339407818e-06,1.4938442364617739e-05,3.256720685781374e-06,6.634534628318347e-06,2.039106868825615e-06
56,13530,5.836567875198849e-06,3.667042339407818e-06,1.6783152521757927e-05,3.256720685781374e-06,7.142195944775499e-06,2.039106868825615e-06
57,14174,7.2595547331191936e-06,3.667042339407818e-06,1.5782203125284204e-05,3.256720685781374e-06,9.340275758678964e-06,2.039106868825615e-06
58,14849,6.123579458015375e-06,3.667042339407818e-06,1.1378277415048797e-05,3.256720685781374e-06,6.865119201919111e-06,2.039106868825615e-06
59,15556,5.692649727524875e-06,3.667042339407818e-06,1.5436882652700576e-05,3.256720685781374e-06,6.783097468969846e-06,2.039106868825615e-06
60,16297,7.579595375377035e-06,3.667042339407818e-06,1.6384302651786348e-05,3.256720685781374e-06,9.071360982078098e-06,2.039106868825615e-06
61,17073,5.83880439078613e-06,3.667042339407818e-06,1.4223449435334895e-05,3.256720685781374e-06,7.297007779081348e-06,2.039106868825615e-06
62,17886,6.377676996117828e-06,3.667042339407818e-06,1.2047416369653475e-05,3.256720685781374e-06,9.118864150518114e-06,2.039106868825615e-06
63,18738,7.049303729679964e-06,3.667042339407818e-06,1.4222079222173545e-05,3.256720685781374e-06,7.023156319067641e-06,2.039106868825615e-06
64,19630,6.155778240683852e-06,3.667042339407818e-06,1.4824145798530132e-05,3.256720685781374e-06,7.133683074935625e-06,2.039106868825615e-06
65,20565,8.487133338681515e-06,3.667042339407818e-06,1.5079160690771354e-05,3.256720685781374e-06,9.267880277218622e-06,2.039106868825615e-06
66,21544,7.061512550810124e-06,3.667042339407818e-06,1.5201762932806797e-05,3.256720685781374e-06,7.15846693121807e-06,2.039106868825615e-06
67,22570,7.473149551033287e-06,3.667042339407818e-06,1.3514530568932028e-05,3.256720685781374e-06,8.918608402223464e-06,2.039106868825615e-06
68,23644,6.731180466284225e-06,3.667042339407818e-06,1.690936681482518e-05,3.256720685781374e-06,7.237230051473361e-06,2.039106868825615e-06
69,24770,7.331404995908649e-06,3.667042339407818e-06,1.5910585224026867e-05,3.256720685781374e-06,8.928366712278351e-06,2.039106868825615e-06
70,25950,6.895414436943039e-06,3.667042339407818e-06,1.6621385695617323e-05,3.256720685781374e-06,7.383386983118076e-06,2.039106868825615e-06
71,27185,8.075632372826848e-06,3.667042339407818e-06,1.4486439157457546e-05,3.256720685781374e-06,8.797606102833091e-06,2.039106868825615e-06
72,28480,6.963731197828657e-06,3.667042339407818e-06,1.873387379592724e-05,3.256720685781374e-06,8.752456541811482e-06,2.039106868825615e-06
73,29836,7.70957592361845e-06,3.667042339407818e-06,1.7821125537336854e-05,3.256720685781374e-06,7.323867786600277e-06,2.039106868825615e-06
74,31257,7.835616648042713e-06,3.667042339407818e-06,1.5759928028074837e-05,3.256720685781374e-06,9.216532908737818e-06,2.039106868825615e-06
75,32745,6.704742552797601e-06,3.667042339407818e-06,1.6611363982804804e-05,3.256720685781374e-06,8.97184148565069e-06,2.039106868825615e-06
76,34304,7.519011955652664e-06,3.667042339407818e-06,1.8645932814523357e-05,3.256720685781374e-06,7.5710339666302524e-06,2.039106868825615e-06
77,35938,8.504361128182129e-06,3.667042339407818e-06,1.7609551936227137e-05,3.256720685781374e-06,9.159856317861827e-06,2.039106868825615e-06
78,37649,7.813326843662145e-06,3.667042339407818e-06,1.8548457574209828e-05,3.256720685781374e-06,8.817497846560889e-06,2.039106868825615e-06
79,39442,7.756836823811185e-06,3.667042339407818e-06,1.5015770398750186e-05,3.256720685781374e-06,9.058842122944668e-06,2.039106868825615e-06
80,41320,7.245305200744806e-06,3.667042339407818e-06,1.214775549823063e-05,3.256720685781374e-06,8.995933431161915e-06,2.039106868825615e-06
81,43287,7.673253591600353e-06,3.667042339407818e-06,1.7712225131775702e-05,3.256720685781374e-06,9.409087576753679e-06,2.039106868825615e-06
82,45348,7.658684244229068e-06,3.667042339407818e-06,1.7138504105038224e-05,3.256720685781374e-06,9.279860131185584e-06,2.039106868825615e-06
83,47508,7.918961593937551e-06,3.667042339407818e-06,1.5322348279985923e-05,3.256720685781374e-06,9.501056658295236e-06,2.039106868825615e-06
84,49770,8.126825651107889e-06,3.667042339407818e-06,1.4871527733322796e-05,3.256720685781374e-06,9.573016129321833e-06,2.039106868825615e-06
85,52140,8.637767026467391e-06,3.667042339407818e-06,1.739204089944281e-05,3.256720685781374e-06,9.335765538656441e-06,2.039106868825615e-06
86,54622,8.303794973977582e-06,3.667042339407818e-06,1.2016305989458928e-05,3.256720685781374e-06,9.504355740369966e-06,2.039106868825615e-06
87,57223,8.201714949283447e-06,3.667042339407818e-06,1.8088667561431555e-05,3.256720685781374e-06,9.267688445434283e-06,2.039106868825615e-06
88,59948,9.161620077396748e-06,3.667042339407818e-06,1.699806588052582e-05,3.256720685781374e-06,9.130280609802829e-06,2.039106868825615e-06
89,62802,1.0378888213616648e-05,3.667042339407818e-06,1.7814357426283387e-05,3.256720685781374e-06,9.843401193489699e-06,2.039106868825615e-06
90,65793,9.782742666172292e-06,3.667042339407818e-06,1.808133121753883e-05,3.256720685781374e-06,9.590777171221065e-06,2.039106868825615e-06
91,68926,8.94079356974873e-06,3.667042339407818e-06,1.748099439299031e-05,3.256720685781374e-06,1.0063328399981416e-05,2.039106868825615e-06
92,72208,1.001992974237991e-05,3.667042339407818e-06,1.4615902846809926e-05,3.256720685781374e-06,9.784661109606495e-06,2.039106868825615e-06
93,75646,9.178648833869466e-06,3.667042339407818e-06,1.632469780771685e-05,3.256720685781374e-06,1.0185720389616048e-05,2.039106868825615e-06
94,79248,8.910975623751755e-06,3.667042339407818e-06,1.9174151148142393e-05,3.256720685781374e-06,1.0583524917704203e-05,2.039106868825615e-06
95,83021,9.827270307476681e-06,3.667042339407818e-06,1.922983499535409e-05,3.256720685781374e-06,1.0051011186264008e-05,2.039106868825615e-06
96,86974,9.368605077188567e-06,3.667042339407818e-06,1.9642619059025375e-05,3.256720685781374e-06,1.001871744850147e-05,2.039106868825615e-06
97,91116,9.750285262287833e-06,3.667042339407818e-06,1.8847229933005e-05,3.256720685781374e-06,1.0236105376086634e-05,2.039106868825615e-06
98,95454,1.0118265296046762e-05,3.667042339407818e-06,1.6442611964970272e-05,3.256720685781374e-06,1.0237129898482116e-05,2.039106868825615e-06
99,99999,8.936420636331607e-06,3.667042339407818e-06,1.8135421432186733e-05,3.256720685781374e-06,1.0580886314997183e-05,2.039106868825615e-06
