id,size,amortizedTimes_BST,deviazioneStandard_BST,amortizedTimes_AVL,deviazioneStandard_AVL,amortizedTimes_RBT,deviazioneStandard_RBT
0,1000,4.1715145111083986e-05,0.001161051537367907,2.1407604217529295e-06,6.132902150178767e-08,4.308938980102539e-06,1.7341771924243588e-06
1,1047,4.364449064733875e-05,0.001161051537367907,2.0344141219611836e-06,6.132902150178767e-08,4.49010271511424e-06,1.7341771924243588e-06
2,1097,4.9972490712307535e-05,0.001161051537367907,2.208577575961785e-06,6.132902150178767e-08,5.417556901790929e-06,1.7341771924243588e-06
3,1149,4.9537944212698544e-05,0.001161051537367907,2.078329406685161e-06,6.132902150178767e-08,4.929599811763116e-06,1.7341771924243588e-06
4,1204,5.095108006879737e-05,0.001161051537367907,1.9758642709928494e-06,6.132902150178767e-08,4.4020307420496136e-06,1.7341771924243588e-06
5,1261,5.358348849460684e-05,0.001161051537367907,1.9672841519046456e-06,6.132902150178767e-08,4.920573767738433e-06,1.7341771924243588e-06
6,1321,5.585077041753037e-05,0.001161051537367907,1.964561872460642e-06,6.132902150178767e-08,4.945245319744748e-06,1.7341771924243588e-06
7,1384,5.9992074966430664e-05,0.001161051537367907,2.0050244524299756e-06,6.132902150178767e-08,4.494982647757999e-06,1.7341771924243588e-06
8,1450,0.00012864129296664533,0.001161051537367907,1.9579920275457972e-06,6.132902150178767e-08,4.693886329387796e-06,1.7341771924243588e-06
9,1519,6.486445057148836e-05,0.001161051537367907,1.92885182263272e-06,6.132902150178767e-08,4.934118796995865e-06,1.7341771924243588e-06
10,1592,6.870917938462454e-05,0.001161051537367907,1.914537132684909e-06,6.132902150178767e-08,4.537740544458131e-06,1.7341771924243588e-06
11,1668,7.155401815327523e-05,0.001161051537367907,1.9305043940921483e-06,6.132902150178767e-08,4.902446298576374e-06,1.7341771924243588e-06
12,1747,7.561512790411353e-05,0.001161051537367907,1.9260454532686614e-06,6.132902150178767e-08,4.732069726255053e-06,1.7341771924243588e-06
13,1830,8.101033382728451e-05,0.001161051537367907,1.915295918782552e-06,6.132902150178767e-08,4.5355551881216914e-06,1.7341771924243588e-06
14,1917,8.142560362878042e-05,0.001161051537367907,1.935456404787958e-06,6.132902150178767e-08,5.132902023005001e-06,1.7341771924243588e-06
15,2009,8.792222109880538e-05,0.001161051537367907,1.9179107301445255e-06,6.132902150178767e-08,4.652544537131736e-06,1.7341771924243588e-06
16,2104,8.979224433463789e-05,0.001161051537367907,1.9628738722420464e-06,6.132902150178767e-08,4.971095364356676e-06,1.7341771924243588e-06
17,2205,9.635235446921281e-05,0.001161051537367907,1.9920115568199937e-06,6.132902150178767e-08,4.68035674149217e-06,1.7341771924243588e-06
18,2310,0.0001008996715793362,0.001161051537367907,2.0265579223632812e-06,6.132902150178767e-08,4.9842900528020155e-06,1.7341771924243588e-06
19,2420,0.00010309583884625395,0.001161051537367907,2.228622594155556e-06,6.132902150178767e-08,4.690146643268175e-06,1.7341771924243588e-06
20,2535,0.00010974825721755771,0.001161051537367907,1.990489470653045e-06,6.132902150178767e-08,4.981866719924957e-06,1.7341771924243588e-06
21,2656,0.00011518866900938102,0.001161051537367907,1.9865222724087267e-06,6.132902150178767e-08,4.938567977353751e-06,1.7341771924243588e-06
22,2782,0.00012028251595843361,0.001161051537367907,1.9795940901031606e-06,6.132902150178767e-08,4.895379610150774e-06,1.7341771924243588e-06
23,2915,0.00012670839221358911,0.001161051537367907,1.975643491663205e-06,6.132902150178767e-08,5.172251837126796e-06,1.7341771924243588e-06
24,3053,0.000131784483443859,0.001161051537367907,2.083526921201994e-06,6.132902150178767e-08,5.040292149483475e-06,1.7341771924243588e-06
25,3199,0.00013867397910544707,0.001161051537367907,2.0087827328929084e-06,6.132902150178767e-08,4.8199457166790405e-06,1.7341771924243588e-06
26,3351,0.00014401677472311786,0.001161051537367907,1.9334601274500033e-06,6.132902150178767e-08,5.109813169947812e-06,1.7341771924243588e-06
27,3511,0.0001530640487214569,0.001161051537367907,1.9583461699544177e-06,6.132902150178767e-08,1.533294260518838e-05,1.7341771924243588e-06
28,3678,0.00015912313964329316,0.001161051537367907,1.926601030309282e-06,6.132902150178767e-08,5.1095344373361775e-06,1.7341771924243588e-06
29,3853,0.00017270260961093503,0.001161051537367907,2.017121422671356e-06,6.132902150178767e-08,5.200346692518664e-06,1.7341771924243588e-06
30,4037,0.0001748186366109822,0.001161051537367907,2.076314586443803e-06,6.132902150178767e-08,5.096854152495181e-06,1.7341771924243588e-06
31,4229,0.00018315705375824732,0.001161051537367907,2.1116027146486224e-06,6.132902150178767e-08,5.211664390609067e-06,1.7341771924243588e-06
32,4430,0.00019418100740247601,0.001161051537367907,2.0656844025002644e-06,6.132902150178767e-08,5.078531011232673e-06,1.7341771924243588e-06
33,4641,0.00020114714358033254,0.001161051537367907,2.065266907356392e-06,6.132902150178767e-08,5.006070949732808e-06,1.7341771924243588e-06
34,4862,0.00021305117573771444,0.001161051537367907,2.0625021466498806e-06,6.132902150178767e-08,5.257909359729913e-06,1.7341771924243588e-06
35,5094,0.0002199685662505109,0.001161051537367907,1.976852282197231e-06,6.132902150178767e-08,5.093189983869657e-06,1.7341771924243588e-06
36,5336,0.0002316375901137871,0.001161051537367907,1.9371509552001953e-06,6.132902150178767e-08,5.314509193042944e-06,1.7341771924243588e-06
37,5590,0.0002452562021654706,0.001161051537367907,1.965097963063576e-06,6.132902150178767e-08,1.2881725973221399e-05,1.7341771924243588e-06
38,5857,0.00025316955328028376,0.001161051537367907,1.9096689092353768e-06,6.132902150178767e-08,5.347585849068323e-06,1.7341771924243588e-06
39,6135,0.00027011460954810704,0.001161051537367907,1.9265076156156086e-06,6.132902150178767e-08,5.1804645914514565e-06,1.7341771924243588e-06
40,6428,0.000281327655023125,0.001161051537367907,2.005119537372506e-06,6.132902150178767e-08,5.1549672338631704e-06,1.7341771924243588e-06
41,6734,0.00029364434483853584,0.001161051537367907,2.141695614557858e-06,6.132902150178767e-08,5.403788605959931e-06,1.7341771924243588e-06
42,7054,0.00030821492525278624,0.001161051537367907,1.9655168174784753e-06,6.132902150178767e-08,5.138910692137634e-06,1.7341771924243588e-06
43,7390,0.0003216130162446844,0.001161051537367907,1.965485341816697e-06,6.132902150178767e-08,5.315798706550237e-06,1.7341771924243588e-06
44,7742,0.00033751137033047156,0.001161051537367907,2.202677252495267e-06,6.132902150178767e-08,1.07491610740636e-05,1.7341771924243588e-06
45,8111,0.00035563580514529,0.001161051537367907,1.9320693854970537e-06,6.132902150178767e-08,5.407936548631151e-06,1.7341771924243588e-06
46,8497,0.00037096101451764685,0.001161051537367907,1.9676477414966543e-06,6.132902150178767e-08,5.412609616181171e-06,1.7341771924243588e-06
47,8902,0.00038876934711436586,0.001161051537367907,2.0343784374270486e-06,6.132902150178767e-08,5.467423854905872e-06,1.7341771924243588e-06
48,9326,0.000405168446404418,0.001161051537367907,2.0470609998283736e-06,6.132902150178767e-08,5.545596720552127e-06,1.7341771924243588e-06
49,9770,0.0004247236398249834,0.001161051537367907,1.997469391525097e-06,6.132902150178767e-08,9.128771638430983e-06,1.7341771924243588e-06
50,10235,0.0004436054751531753,0.001161051537367907,1.944107256928012e-06,6.132902150178767e-08,5.336103639663227e-06,1.7341771924243588e-06
51,10722,0.00046651409179767196,0.001161051537367907,2.0023202567019583e-06,6.132902150178767e-08,5.342737549033056e-06,1.7341771924243588e-06
52,11233,0.0004884057761108865,0.001161051537367907,2.0203921076006175e-06,6.132902150178767e-08,5.3699895491490095e-06,1.7341771924243588e-06
53,11768,0.0005099892130034218,0.001161051537367907,1.985045374047586e-06,6.132902150178767e-08,5.421226807470471e-06,1.7341771924243588e-06
54,12328,0.0005382917710204623,0.001161051537367907,1.9522358425865694e-06,6.132902150178767e-08,8.680888540477121e-06,1.7341771924243588e-06
55,12915,0.0005616946779753965,0.001161051537367907,1.9460974208523128e-06,6.132902150178767e-08,5.492783774251491e-06,1.7341771924243588e-06
56,13530,0.0005858432250999118,0.001161051537367907,1.9347500290063604e-06,6.132902150178767e-08,5.586395771170402e-06,1.7341771924243588e-06
57,14174,0.0006092931279951752,0.001161051537367907,1.9920247388656443e-06,6.132902150178767e-08,8.724212511917658e-06,1.7341771924243588e-06
58,14849,0.0006450888235341484,0.001161051537367907,1.9821544891014206e-06,6.132902150178767e-08,5.573831075642259e-06,1.7341771924243588e-06
59,15556,0.0006676925335239402,0.001161051537367907,1.9444540185160794e-06,6.132902150178767e-08,5.560872731953055e-06,1.7341771924243588e-06
60,16297,0.00069827119682496,0.001161051537367907,1.9742205310191172e-06,6.132902150178767e-08,8.272760417802703e-06,1.7341771924243588e-06
61,17073,0.0007303862749626031,0.001161051537367907,1.9180595242885672e-06,6.132902150178767e-08,5.641651371413093e-06,1.7341771924243588e-06
62,17886,0.0007699268263857676,0.001161051537367907,1.9539766206072707e-06,6.132902150178767e-08,5.571551335200519e-06,1.7341771924243588e-06
63,18738,0.0008098861682324669,0.001161051537367907,1.980675896734066e-06,6.132902150178767e-08,7.80573368632357e-06,1.7341771924243588e-06
64,19630,0.000844116084623021,0.001161051537367907,1.9439676860978393e-06,6.132902150178767e-08,5.620119830387561e-06,1.7341771924243588e-06
65,20565,0.0008933447006117999,0.001161051537367907,1.9590552636315114e-06,6.132902150178767e-08,7.5019597137696025e-06,1.7341771924243588e-06
66,21544,0.0009571796250617775,0.001161051537367907,1.970516719031945e-06,6.132902150178767e-08,5.743072416275087e-06,1.7341771924243588e-06
67,22570,0.0009757535141761925,0.001161051537367907,1.9940645440151905e-06,6.132902150178767e-08,8.034547662967383e-06,1.7341771924243588e-06
68,23644,0.0010200325173384606,0.001161051537367907,1.965823905194921e-06,6.132902150178767e-08,5.997169080310577e-06,1.7341771924243588e-06
69,24770,0.001069772835455453,0.001161051537367907,1.9968157580748746e-06,6.132902150178767e-08,7.441104493123849e-06,1.7341771924243588e-06
70,25950,0.0011208345710886696,0.001161051537367907,1.9767978058155333e-06,6.132902150178767e-08,5.6734434212333665e-06,1.7341771924243588e-06
71,27185,0.0011899619587471496,0.001161051537367907,1.9970154179048074e-06,6.132902150178767e-08,7.3485456013780365e-06,1.7341771924243588e-06
72,28480,0.0012105014803034536,0.001161051537367907,1.9728132847989544e-06,6.132902150178767e-08,5.906602639830514e-06,1.7341771924243588e-06
73,29836,0.0013330378790038539,0.001161051537367907,2.0207724601274076e-06,6.132902150178767e-08,7.60949701610176e-06,1.7341771924243588e-06
74,31257,0.0013482429230896225,0.001161051537367907,1.9939915172868464e-06,6.132902150178767e-08,7.293600913571141e-06,1.7341771924243588e-06
75,32745,0.0014144080379461038,0.001161051537367907,2.055212566371655e-06,6.132902150178767e-08,5.7799376719124284e-06,1.7341771924243588e-06
76,34304,0.0014795985614964322,0.001161051537367907,1.9828552630410266e-06,6.132902150178767e-08,7.095093380159407e-06,1.7341771924243588e-06
77,35938,0.0015488889727013173,0.001161051537367907,1.9969098442842317e-06,6.132902150178767e-08,7.208138397469851e-06,1.7341771924243588e-06
78,37649,0.001624846839028344,0.001161051537367907,1.992377352342811e-06,6.132902150178767e-08,7.13559215820948e-06,1.7341771924243588e-06
79,39442,0.0017072930913155017,0.001161051537367907,1.963063455680993e-06,6.132902150178767e-08,7.108768919443819e-06,1.7341771924243588e-06
80,41320,0.0017888203075756063,0.001161051537367907,1.9501912743862922e-06,6.132902150178767e-08,5.824758607212595e-06,1.7341771924243588e-06
81,43287,0.001891725532097631,0.001161051537367907,1.986854539651298e-06,6.132902150178767e-08,7.987597970894007e-06,1.7341771924243588e-06
82,45348,0.0019924607480488158,0.001161051537367907,1.9399768788631374e-06,6.132902150178767e-08,6.912629882147611e-06,1.7341771924243588e-06
83,47508,0.0020417197942834133,0.001161051537367907,1.955837314956124e-06,6.132902150178767e-08,6.733749052726872e-06,1.7341771924243588e-06
84,49770,0.0021783786436053725,0.001161051537367907,1.9757700225112666e-06,6.132902150178767e-08,6.911393890472835e-06,1.7341771924243588e-06
85,52140,0.0023025826425629187,0.001161051537367907,1.9930403123745117e-06,6.132902150178767e-08,6.944995114846297e-06,1.7341771924243588e-06
86,54622,0.002401162335700761,0.001161051537367907,2.046226080201362e-06,6.132902150178767e-08,7.569678581986178e-06,1.7341771924243588e-06
87,57223,0.002528987381577152,0.001161051537367907,2.025410056670422e-06,6.132902150178767e-08,7.1868933482732e-06,1.7341771924243588e-06
88,59948,0.0026440806351311253,0.001161051537367907,2.0011681811044507e-06,6.132902150178767e-08,7.3555917842318e-06,1.7341771924243588e-06
89,62802,0.0027784477513723514,0.001161051537367907,2.0121052054014067e-06,6.132902150178767e-08,7.73712364846227e-06,1.7341771924243588e-06
90,65793,0.002934297266496838,0.001161051537367907,1.989133456604441e-06,6.132902150178767e-08,7.297359525286769e-06,1.7341771924243588e-06
91,68926,0.003093318076798281,0.001161051537367907,1.9620950398496187e-06,6.132902150178767e-08,7.088530331013826e-06,1.7341771924243588e-06
92,72208,0.003246261272888978,0.001161051537367907,1.951266280727272e-06,6.132902150178767e-08,7.38446144050752e-06,1.7341771924243588e-06
93,75646,0.003418263358284152,0.001161051537367907,1.9493175644059273e-06,6.132902150178767e-08,7.812546873081305e-06,1.7341771924243588e-06
94,79248,0.003593425789361719,0.001161051537367907,2.061528868803274e-06,6.132902150178767e-08,7.379868524906829e-06,1.7341771924243588e-06
95,83021,0.003786127740833312,0.001161051537367907,1.9907338228583073e-06,6.132902150178767e-08,7.748496128810607e-06,1.7341771924243588e-06
96,86974,0.0039160678925456,0.001161051537367907,1.992459356062498e-06,6.132902150178767e-08,7.715936193611583e-06,1.7341771924243588e-06
97,91116,0.004167986981637118,0.001161051537367907,2.001636958456138e-06,6.132902150178767e-08,7.564151008144087e-06,1.7341771924243588e-06
98,95454,0.004405983279591461,0.001161051537367907,1.989484075593062e-06,6.132902150178767e-08,7.72514761282267e-06,1.7341771924243588e-06
99,99999,0.004725019607946019,0.001161051537367907,1.954179278426085e-06,6.132902150178767e-08,7.551736055080278e-06,1.7341771924243588e-06
